##TITLE=Multi-block JCAMP-DX
##JCAMP-DX=5.01
##DATATYPE=LINK
##BLOCKS=16
##TITLE=7
##JCAMP-DX=5.01  $$ Nicolet v. 1
##DATATYPE=INFRARED SPECTRUM
##ORIGIN=UNKNOWN
##OWNER=Nicolet
##LONGDATE=2025/03/11
##TIME=15:37:58
##SPECTROMETER/DATA SYSTEM=Nicolet iS50
##DATA PROCESSING=
Ratio against background
Truncated
ElementMultiply or ElementDivide
##COMMENTS=
Number of sample scans: 200
Collection length: 112.43 sec
Sample gain: 4.0
Background collected on:   11 15:10:25 2025 (GMT+03:00);
Number of background scans: 200
Background gain: 4.0
Sample spacing:  1.000
Number of scan points: 4384
Resolution points: 2048
Number of FFT points: 16384
Apodization: N-B ;
Phase correction: Mertz;
Laser frequency: 15798.3 cm-1
Number of rejected sample scans: 0
Number of rejected background scans: 0
Bench serial number: AUP1300323;
##RESOLUTION=16.000
##XUNITS=1/CM
##YUNITS=ARBITRARY UNITS
##FIRSTX=599.763062
##LASTX=3999.705811
##FIRSTY=0.114292
##MAXX=3999.705811
##MINX=599.763062
##MAXY=0.495534
##MINY=0.006141
##XFACTOR=1.000000
##YFACTOR=1.000000E-009
##NPOINTS=1764
##DELTAX=1.928498
##ZPD=2048
##XYDATA=(X++(Y..Y))
599.763 114292232 112522752 111130888 110025904 109160424 108469448 
611.334 107820264 107003944 105776976 103944576 101429344 98357408 94981288 
624.834 91618344 88564704 86037032 84149368 82921904 82304240 82200880 
638.334 82488624 83023128 83639616 84160912 84420416 84303200 83771392 
651.833 82934008 81971008 81094216 80484656 80246704 80382168 80783432 
665.333 81246096 81508816 81322384 80522384 79070424 77045072 74598640 
678.833 71912944 69166184 66531072 64145456 62100572 60428000 59100128 
692.332 58045856 57179576 56425992 55733776 55073536 54426660 53774208 
705.832 53092144 52356100 51551136 50684052 49778444 48877304 48028684 
719.332 47273840 46640220 46141672 45783784 45569960 45501172 45570716 
732.831 45755164 46008300 46263992 46449032 46502832 46397816 46143392 
746.331 45786284 45393216 45031676 44754696 44593764 44561116 44655960 
759.831 44871168 45195604 45612856 46099232 46625048 47159456 47678156 
773.331 48169352 48630500 49062532 49457268 49790000 50020572 50105092 
786.830 50013984 49747344 49339624 48850184 48342584 47862392 47422828 
800.330 47004920 46571776 46091348 45550056 44961236 44355888 43765996 
813.830 43208708 42678520 42151084 41596380 40993536 40341288 39658288 
827.329 38975412 38323340 37722084 37176496 36683840 36226396 35794172 
840.829 35386260 35013404 34697452 34467892 34357440 34396972 34610020 
854.329 35007032 35581204 36306712 37141436 38034592 38937200 39818972 
867.828 40655332 41445412 42198472 42924156 43625072 44294668 44921680 
881.328 45498200 46027072 46524428 47016172 47529720 48084116 48683372 
894.828 49314004 49953508 50565500 51122540 51608788 52023968 52382756 
908.328 52710132 53034388 53379784 53760324 54177204 54620004 55071820 
921.827 55516476 55945168 56359932 56775060 57202520 57652244 58122344 
935.327 58597216 59052512 59464768 59823260 60138024 60440496 60775800 
948.827 61189052 61710876 62346940 63076452 63859128 64649712 65412940 
962.326 66135464 66828488 67522616 68255800 69059928 69950696 70923520 
975.826 71957112 73022376 74093112 75154792 76208760 77270752 78365336 
989.326 79517768 80747864 82065824 83472520 84962928 86530464 88169992 
1002.825 89878464 91652648 93485072 95361528 97260752 99158528 101034984 
1016.325 102882168 104708432 106536624 108400296 110330656 112347928 
1027.896 114456400 116645576 118895928 121186240 123499616 125825584 
1039.467 128158728 130496816 132840216 135194016 137571616 139995504 
1051.038 142492512 145091056 147806112 150634352 153555360 156540000 
1062.609 159562736 162612880 165697056 168833344 172038944 175318128 
1074.179 178658528 182037296 185434368 188845936 192287872 195796416 
1085.750 199407136 203141696 206998848 210956800 214983008 219044208 
1097.321 223110528 227147488 231101936 234889680 238394544 241482448 
1108.892 244025936 245927632 247128928 247614352 247385712 246449168 
1120.463 244810832 242485568 239513008 235969168 231963328 227621296 
1132.033 223060432 218370672 213607408 208799952 203968224 199138320 
1143.604 194348528 189649760 185089536 180701904 176502304 172490080 
1155.175 168656752 164993344 161494176 158155120 154969504 151925376 
1166.746 149007328 146202544 143507264 140929648 138485824 136192992 
1178.317 134057328 132068392 130200328 128419936 126697864 125017912 
1189.887 123380248 121798200 120290592 118874160 117559232 116349240 
1201.458 115242952 114236304 113322384 112489584 111719240 110986040 
1213.029 110262560 109526520 108767792 107990960 107211752 106447680 
1224.600 105706536 104978144 104232400 103424776 102506312 101433880 
1236.171 100176872 98716688 97043856 95152424 93036728 90690496 88108136 
1249.670 85286232 82223848 78922752 75388840 71636200 67693392 63609176 
1263.169 59453352 55310368 51268920 47400636 43756732 40362876 37223528 
1276.668 34330024 31669050 29228488 26999698 24976444 23152330 21518132 
1290.168 20060254 18761130 17601010 16560276 15626136 14780514 14013003 
1303.667 13315412 12680132 12098696 11560934 11055250 10570221 10096853 
1317.166 9631103 9175413 8738559 8333560 7974266 7671842 7438313 7265268 
1332.594 7142641 7052636 6972874 6881906 6766327 6625797 6473580 6331133 
1348.022 6220224 6155747 6141189 6167679 6216337 6263780 6298901 6302395 
1363.449 6276698 6234853 6194058 6168493 6164875 6182399 6216573 6263927 
1378.877 6325433 6406296 6513109 6649428 6812451 6991405 7178308 7344443 
1394.305 7472329 7551982 7583855 7578008 7550407 7518584 7499215 7506931 
1409.733 7554146 7649544 7794845 7981025 8186413 8380227 8536854 8635541 
1425.160 8678623 8685377 8684174 8704057 8767712 8887001 9061280 9278907 
1440.588 9522554 9774747 10022032 10255870 10472358 10671529 10852883 
1454.087 11028490 11208316 11399512 11602137 11808974 12009901 12197478 
1467.587 12370212 12532508 12690946 12848407 12999371 13130226 13225509 
1481.086 13276292 13285452 13278089 13292221 13374355 13564085 13876072 
1494.585 14290782 14761319 15231328 15652528 15994519 16248001 16423930 
1508.084 16548961 16656095 16773078 16908456 17069504 17245130 17415864 
1521.584 17559022 17655836 17698908 17695076 17662336 17624242 17606452 
1535.083 17633950 17726120 17886900 18096272 18315882 18508450 18662082 
1548.582 18779822 18870832 18940688 18987052 19002302 18981882 18932716 
1562.081 18873226 18823732 18796592 18793112 18805860 18824448 18841296 
1575.581 18856876 18877974 18914020 18969398 19039104 19108624 19158072 
1589.080 19168880 19130878 19046914 18932026 18807632 18693070 18598456 
1602.579 18522634 18455810 18385748 18305010 18213538 18118386 18030134 
1616.078 17957780 17904530 17867220 17839882 17819216 17808530 17816942 
1629.578 17855552 17931500 18043144 18178394 18319126 18447618 18555022 
1643.077 18643978 18726860 18820290 18937876 19083026 19247474 19418152 
1656.576 19587540 19757036 19933676 20124100 20330002 20546104 20761666 
1670.076 20965612 21153070 21329240 21507394 21701426 21917036 22146800 
1683.575 22372848 22576534 22749944 22901636 23054784 23240482 23488852 
1697.074 23817328 24219646 24664590 25110988 25529514 25913286 26271492 
1710.573 26616664 26954244 27278566 27575548 27832056 28045106 28224370 
1724.073 28386972 28550802 28730380 28935492 29172018 29440790 29737268 
1737.572 30052294 30373948 30689688 30988032 31259272 31496366 31696062 
1751.071 31859358 31990106 32092526 32169476 32222480 32253330 32267298 
1764.570 32272632 32278592 32290884 32306704 32313984 32297268 32247320 
1778.070 32168264 32077272 31997464 31948614 31939228 31962734 31998594 
1791.569 32019186 32002140 31940356 31845660 31741700 31651024 31585092 
1805.068 31541764 31509288 31473290 31422892 31353176 31263690 31154454 
1818.568 31022696 30862574 30668510 30441304 30191748 29939666 29706218 
1832.067 29503878 29330656 29172118 29009042 28826844 28622844 28409152 
1845.566 28208472 28044564 27932044 27871766 27853188 27860882 27879560 
1859.065 27896772 27903418 27893620 27865278 27821826 27773858 27738366 
1872.565 27734706 27779090 27880044 28037168 28243086 28486834 28757658 
1886.064 29047908 29353666 29673440 30005710 30346838 30690836 31031432 
1899.563 31365018 31692884 32021482 32360632 32720290 33107228 33523214 
1913.062 33964800 34424800 34894104 35362560 35819448 36254140 36657372 
1926.562 37023364 37351768 37648416 37924232 38191928 38461520 38735424 
1940.061 39005676 39255368 39464460 39618288 39714536 39765140 39792492 
1953.560 39822028 39874288 39959120 40074016 40206308 40338168 40452332 
1967.059 40536636 40586080 40602560 40593408 40569588 40544496 40532292 
1980.559 40546276 40596072 40685048 40808964 40957088 41116544 41277756 
1994.058 41439080 41607560 41795824 42016160 42275404 42572540 42900432 
2007.557 43250500 43617564 44003788 44418536 44875016 45384900 45953708 
2021.057 46579008 47252056 47961644 48698360 49457428 50239528 51049848 
2034.556 51896324 52787940 53733756 54741296 55816296 56961476 58175912 
2048.055 59455252 60792652 62180808 63613704 65087668 66601156 68153360 
2061.554 69742544 71364688 73013408 74681112 76360864 78047384 79738032 
2075.054 81431984 83128464 84825088 86516496 88194216 89847576 91465624 
2088.553 93039064 94561800 96031648 97449520 98817976 100138920 101411976 
2102.052 102633144 103795088 104888112 105902280 106829840 107667640 
2113.623 108418968 109094384 109710800 110289152 110850800 111412776 
2125.194 111984136 112564208 113143360 113706352 114237480 114725104 
2136.765 115164784 115559664 115918416 116251632 116568240 116873312 
2148.335 117168064 117451016 117720280 117974872 118215464 118443584 
2159.906 118660184 118864232 119052840 119221104 119363800 119477104 
2171.477 119560288 119616368 119651880 119675304 119695024 119716968 
2183.048 119743192 119771568 119796976 119813616 119817504 119807432 
2194.619 119785784 119755656 119718832 119673872 119616352 119540880 
2206.189 119444288 119328400 119200624 119071808 118952440 118848368 
2217.760 118758792 118677024 118594024 118502416 118400224 118290168 
2229.331 118177496 118066584 117958632 117851936 117744968 117639760 
2240.902 117543936 117468976 117425880 117419232 117443880 117485424 
2252.473 117525920 117550728 117556280 117551000 117552592 117580144 
2264.043 117646176 117751144 117883632 118025568 118159568 118275248 
2275.614 118372144 118457760 118543824 118641608 118759320 118901472 
2287.185 119070432 119266360 119487648 119730272 119987608 120251528 
2298.756 120514768 120773888 121030840 121291720 121563400 121848440 
2310.327 122141752 122431224 122703440 122952720 123189560 123443216 
2321.897 123753912 124154704 124650256 125203344 125741856 126186736 
2333.468 126490432 126663816 126775112 126912800 127137880 127457912 
2345.039 127838880 128234680 128611568 128958176 129285768 129622136 
2356.610 130000064 130436840 130909664 131351664 131689680 131892280 
2368.181 131973728 131963336 131885368 131757928 131599024 131429864 
2379.751 131273864 131153496 131086560 131082928 131143272 131259224 
2391.322 131415336 131593624 131778032 131958616 132133408 132307208 
2402.893 132488816 132688224 132914432 133175008 133475992 133820648 
2414.464 134207672 134628864 135068736 135506960 135923680 136306080 
2426.035 136652976 136975136 137290864 137618288 137968240 138340528 
2437.605 138725584 139109856 139482896 139841632 140190512 140537472 
2449.176 140888288 141242736 141594288 141933856 142255088 142558448 
2460.747 142851776 143147040 143454912 143779824 144118208 144459936 
2472.318 144792512 145105408 145393072 145655360 145896032 146120736 
2483.889 146335472 146546064 146758368 146977344 147206496 147446048 
2495.459 147692112 147937328 148173136 148392672 148593664 148778176 
2507.030 148951296 149117792 149279760 149435856 149583152 149719920 
2518.601 149848304 149974416 150106272 150249696 150405216 150566528 
2530.172 150722128 150858992 150966240 151037552 151071440 151069904 
2541.743 151036880 150977520 150898976 150811040 150726208 150657360 
2553.313 150614320 150599648 150606992 150622080 150627376 150607376 
2564.884 150553328 150464608 150346912 150208416 150056160 149894272 
2576.455 149724384 149547728 149366640 149184176 149002832 148822320 
2588.026 148639280 148449264 148250416 148046576 147848112 147668624 
2599.597 147518976 147401488 147307408 147219120 147117152 146987984 
2611.167 146829632 146651376 146468384 146293152 146128672 145966080 
2622.738 145788512 145578656 145326640 145034128 144713216 144381072 
2634.309 144053536 143740336 143444432 143164128 142896624 142639792 
2645.880 142391520 142147760 141900832 141639968 141355120 141041456 
2657.451 140702992 140352128 140005664 139678576 139378944 139106032 
2669.021 138853024 138611920 138378128 138151376 137933552 137723616 
2680.592 137514400 137292576 137043328 136757248 136436096 136094096 
2692.163 135754112 135439504 135166752 134940832 134756112 134600880 
2703.734 134463232 134334304 134208096 134078232 133935136 133765608 
2715.305 133556544 133300616 133001536 132674856 132343856 132031864 
2726.875 131754400 131514816 131305584 131113560 130926744 130738480 
2738.446 130547392 130353720 130154800 129942792 129706880 129438248 
2750.017 129135792 128808680 128474216 128151712 127855464 127590264 
2761.588 127351744 127130928 126920672 126719744 126532920 126366528 
2773.159 126222728 126094792 125967056 125819296 125633872 125401856 
2784.729 125126200 124820528 124504584 124198320 123917408 123670696 
2796.300 123459848 123279944 123120776 122968248 122806968 122623528 
2807.871 122411152 122172536 121920952 121676472 121459768 121284256 
2819.442 121150976 121047824 120954088 120847960 120714304 120548688 
2831.013 120356864 120150120 119939416 119731184 119526408 119322560 
2842.583 119117344 118910800 118705280 118503216 118304616 118105400 
2854.154 117898976 117679216 117443888 117195608 116941112 116688264 
2865.725 116443920 116213144 116000248 115810032 115648264 115519640 
2877.296 115424360 115355008 115296456 115229456 115137024 115011232 
2888.867 114856656 114688608 114526672 114386368 114272880 114179840 
2900.438 114093560 114000312 113893200 113774416 113652712 113537008 
2912.008 113430456 113327112 113214216 113077280 112906544 112699936 
2923.579 112462768 112203448 111929768 111647040 111359680 111073848 
2935.150 110799496 110548784 110331968 110152568 110004912 109875504 
2946.721 109748032 109609528 109454888 109286784 109112176 108936784 
2958.292 108761632 108583056 108396560 108201760 108005040 107817136 
2969.862 107647848 107499488 107364600 107228296 107075680 106899336 
2981.433 106704016 106504576 106319248 106160704 106030016 105916640 
2993.004 105804560 105680888 105543136 105400016 105266808 105156640 
3004.575 105073608 105010320 104952104 104884640 104801648 104707392 
3016.146 104613736 104532840 104469992 104420232 104370936 104307864 
3027.716 104222008 104112904 103987616 103855848 103724832 103596408 
3039.287 103468768 103340112 103212744 103093608 102992064 102915064 
3050.858 102863416 102831576 102810704 102793512 102777920 102766168 
3062.429 102760960 102759664 102751568 102719672 102647512 102527056 
3074.000 102364056 102176864 101989384 101820896 101678192 101553408 
3085.570 101429472 101289680 101127344 100949744 100775472 100626384 
3097.141 100518416 100454992 100426880 100417264 100408976 100390176 
3108.712 100356504 100309184 100252008 100188920 100123776 100061008 
3120.283 100006152 99964440 99938072 99923704 99912784 99894760 99862760 
3133.782 99817864 99769776 99731728 99712752 99710360 99708656 99683240 
3147.281 99611320 99482144 99302728 99095288 98888072 98704232 98554048 
3160.781 98434336 98334744 98246496 98168496 98106488 98067008 98049144 
3174.280 98040392 98019752 97967536 97876328 97757880 97639920 97555416 
3187.779 97528136 97562504 97641632 97735128 97811120 97847712 97836888 
3201.278 97781640 97688416 97561408 97402288 97215472 97014712 96825888 
3214.778 96681320 96608440 96616792 96692304 96801392 96905168 96975848 
3228.277 97008352 97019800 97038544 97087744 97172880 97278616 97377616 
3241.776 97444800 97470176 97462200 97441648 97428816 97433384 97451296 
3255.275 97471176 97485008 97496488 97520384 97573656 97662784 97775784 
3268.775 97883584 97952624 97961056 97911736 97832736 97766224 97749760 
3282.274 97800776 97911064 98053912 98199152 98327576 98437264 98539640 
3295.773 98648424 98768784 98893176 99005864 99092752 99150208 99186528 
3309.272 99216448 99250728 99289096 99319752 99327488 99304392 99257488 
3322.772 99207328 99178832 99188624 99236568 99305888 99372432 99417112 
3336.271 99434720 99433144 99424880 99415400 99397624 99355640 99277432 
3349.770 99168776 99059600 98997184 99028224 99177112 99432000 99745864 
3363.270 100053856 100298440 100450472 100516128 100527176 100521176 
3374.840 100523128 100536944 100550672 100550136 100532896 100512960 
3386.411 100515024 100560448 100654800 100783144 100916952 101027536 
3397.982 101099688 101136128 101152464 101165808 101185168 101208944 
3409.553 101230976 101250232 101277336 101332320 101434288 101587992 
3421.124 101776200 101963424 102111024 102195632 102221592 102219136 
3432.694 102230816 102292128 102417176 102595112 102798784 103000744 
3444.265 103187392 103363408 103544760 103745016 103964920 104191048 
3455.836 104404904 104595568 104769008 104946528 105154248 105408336 
3467.407 105705472 106023568 106333584 106614368 106862592 107091208 
3478.978 107318400 107553368 107788376 108003272 108180784 108323056 
3490.548 108459520 108638792 108908968 109294504 109781872 110321216 
3502.119 110846144 111303040 111675784 111990072 112296600 112642496 
3513.690 113048152 113499776 113959552 114386408 114757280 115077512 
3525.261 115376672 115691480 116046848 116446448 116878432 117329280 
3536.832 117795512 118284608 118805864 119355728 119908632 120421840 
3548.402 120856240 121201216 121488336 121781336 122151224 122646144 
3559.973 123268584 123965832 124642632 125198288 125575456 125788528 
3571.544 125910712 126031352 126216544 126492480 126851264 127267064 
3583.115 127714072 128176552 128649920 129131640 129611272 130067960 
3594.686 130481640 130848648 131191472 131554448 131987600 132524312 
3606.256 133163232 133861248 134545376 135140448 135602320 135934752 
3617.827 136179472 136385392 136579088 136752592 136876304 136926864 
3629.398 136914784 136888768 136915904 137050960 137318800 137714048 
3640.969 138212064 138778736 139374992 139954880 140465104 140854448 
3652.540 141095712 141201952 141224256 141236464 141322816 141570960 
3664.110 142066960 142882496 144049904 145528800 147190784 148858528 
3675.681 150398368 151795840 153150096 154607264 156295488 158289136 
3687.252 160598352 163174672 165934128 168795008 171716384 174716560 
3698.823 177867200 181271760 185041328 189267456 193987984 199151664 
3710.394 204603920 210118064 215467296 220492128 225123984 229360480 
3721.964 233219392 236689904 239695696 242076544 243608432 244075488 
3733.535 243393936 241749824 239699328 238184496 238437248 241744064 
3745.106 249070608 260620592 275557600 292157408 308420128 322785696 
3756.677 334522528 343667616 350714752 356289024 360928192 364986304 
3768.248 368631776 371911360 374834560 377440352 379812768 382050976 
3779.818 384221024 386325504 388312416 390119616 391729152 393198080 
3791.389 394652032 396244192 398096960 400237856 402555616 404815936 
3802.960 406768992 408291360 409448672 410430560 411437248 412593952 
3814.531 413916992 415318528 416650592 417783552 418683552 419426688 
3826.102 420142528 420938528 421857248 422870496 423900672 424860064 
3837.672 425695072 426410496 427057216 427694688 428362496 429075392 
3849.243 429838432 430662496 431570816 432587104 433715104 434923584 
3860.814 436152800 437332960 438410752 439367488 440229152 441054144 
3872.385 441907968 442832864 443835552 444892128 445966464 447028000 
3883.956 448063840 449077152 450079264 451077344 452069120 453041920 
3895.526 453978624 454863232 455686496 456443680 457135008 457763360 
3907.097 458336480 458871456 459398336 459959232 460601952 461365792 
3918.668 462264800 463274080 464332576 465362784 466302912 467130784 
3930.239 467869760 468571744 469293568 470073792 470924032 471831680 
3941.810 472772576 473722464 474664576 475587872 476482080 477333984 
3953.380 478129568 478860256 479530304 480158208 480771456 481394816 
3964.951 482040608 482703328 483366112 484012640 484641568 485272032 
3976.522 485938496 486673440 487491264 488377216 489292480 490188928 
3988.093 491030624 491806752 492534432 493247008 493976608 494739840 
3999.664 495534208 
##END=
